freq,psd_x,psd_y,psd_z,psd_xyz
0.0,5.818e+02,8.414e+00,1.162e+01,6.019e+02
1.6,3.344e+02,3.678e+01,5.142e+01,4.226e+02
3.1,3.686e+01,4.165e+01,5.937e+01,1.379e+02
4.7,4.111e+02,3.895e+01,5.592e+01,5.060e+02
6.3,1.352e+03,3.963e+01,5.897e+01,1.451e+03
7.8,2.162e+03,4.100e+01,5.581e+01,2.259e+03
9.4,3.116e+03,3.897e+01,5.742e+01,3.212e+03
11.0,4.359e+03,4.394e+01,5.732e+01,4.460e+03
12.5,5.869e+03,3.910e+01,5.324e+01,5.962e+03
14.1,7.498e+03,3.961e+01,5.668e+01,7.594e+03
15.7,9.347e+03,4.308e+01,5.821e+01,9.448e+03
17.2,1.169e+04,4.582e+01,6.093e+01,1.180e+04
18.8,1.464e+04,4.462e+01,6.006e+01,1.475e+04
20.4,1.842e+04,4.377e+01,6.035e+01,1.852e+04
22.0,1.989e+04,4.852e+01,6.607e+01,2.001e+04
23.5,1.942e+04,6.283e+01,6.831e+01,1.955e+04
25.1,2.035e+04,6.342e+01,7.049e+01,2.049e+04
26.7,2.352e+04,5.823e+01,6.626e+01,2.364e+04
28.2,2.682e+04,5.631e+01,6.115e+01,2.694e+04
29.8,3.063e+04,4.773e+01,5.827e+01,3.074e+04
31.4,3.657e+04,4.251e+01,5.617e+01,3.667e+04
32.9,4.140e+04,3.937e+01,6.626e+01,4.150e+04
34.5,4.682e+04,3.593e+01,7.986e+01,4.693e+04
36.1,5.698e+04,3.768e+01,1.010e+02,5.712e+04
37.6,6.984e+04,4.224e+01,8.692e+01,6.997e+04
39.2,8.323e+04,4.390e+01,6.711e+01,8.335e+04
40.8,9.054e+04,4.202e+01,7.452e+01,9.066e+04
42.3,1.008e+05,3.882e+01,9.973e+01,1.009e+05
43.9,1.239e+05,3.781e+01,1.227e+02,1.240e+05
45.5,1.550e+05,3.677e+01,1.288e+02,1.552e+05
47.0,1.944e+05,4.144e+01,1.303e+02,1.946e+05
48.6,2.454e+05,4.951e+01,1.462e+02,2.456e+05
50.2,3.092e+05,5.613e+01,1.847e+02,3.094e+05
51.7,3.754e+05,5.877e+01,2.121e+02,3.757e+05
53.3,4.538e+05,5.470e+01,2.261e+02,4.541e+05
54.9,6.426e+05,6.479e+01,4.274e+02,6.431e+05
56.5,1.003e+06,2.394e+02,2.135e+03,1.006e+06
58.0,1.639e+06,1.700e+03,1.003e+04,1.651e+06
59.6,2.456e+06,4.832e+03,1.864e+04,2.480e+06
61.2,3.326e+06,8.239e+03,1.873e+04,3.353e+06
62.7,3.423e+06,8.148e+03,1.333e+04,3.445e+06
64.3,2.643e+06,5.124e+03,9.960e+03,2.658e+06
65.9,1.883e+06,2.540e+03,7.341e+03,1.893e+06
67.4,1.439e+06,2.097e+03,6.142e+03,1.447e+06
69.0,1.030e+06,1.358e+03,3.849e+03,1.035e+06
70.6,7.215e+05,6.507e+02,2.120e+03,7.242e+05
72.1,4.915e+05,5.674e+02,1.920e+03,4.940e+05
73.7,3.470e+05,5.791e+02,1.566e+03,3.492e+05
75.3,2.831e+05,4.406e+02,1.249e+03,2.848e+05
76.8,2.348e+05,3.368e+02,1.368e+03,2.365e+05
78.4,1.945e+05,2.865e+02,1.432e+03,1.962e+05
80.0,1.595e+05,2.613e+02,1.252e+03,1.611e+05
81.5,1.244e+05,3.330e+02,1.336e+03,1.261e+05
83.1,9.328e+04,4.870e+02,2.228e+03,9.599e+04
84.7,8.029e+04,4.032e+02,2.234e+03,8.293e+04
86.2,7.368e+04,3.319e+02,1.182e+03,7.519e+04
87.8,6.884e+04,4.523e+02,1.388e+03,7.068e+04
89.4,7.492e+04,4.325e+02,9.962e+02,7.634e+04
91.0,7.089e+04,5.188e+02,1.139e+03,7.254e+04
92.5,6.501e+04,5.695e+02,1.978e+03,6.755e+04
94.1,5.327e+04,7.278e+02,2.814e+03,5.682e+04
95.7,3.833e+04,1.014e+03,2.737e+03,4.208e+04
97.2,2.660e+04,1.020e+03,1.741e+03,2.936e+04
98.8,2.157e+04,8.823e+02,1.167e+03,2.361e+04
100.4,2.416e+04,8.213e+02,1.597e+03,2.658e+04
101.9,3.086e+04,9.731e+02,1.663e+03,3.350e+04
103.5,3.853e+04,1.170e+03,9.019e+02,4.061e+04
105.1,4.560e+04,1.285e+03,3.537e+02,4.723e+04
106.6,4.476e+04,1.058e+03,3.389e+02,4.616e+04
108.2,3.580e+04,1.124e+03,4.093e+02,3.733e+04
109.8,2.633e+04,1.072e+03,4.483e+02,2.786e+04
111.3,1.955e+04,1.026e+03,7.707e+02,2.134e+04
112.9,1.904e+04,1.477e+03,1.134e+03,2.165e+04
114.5,2.441e+04,1.687e+03,9.756e+02,2.707e+04
116.0,2.809e+04,1.668e+03,7.771e+02,3.053e+04
117.6,3.068e+04,2.160e+03,9.749e+02,3.381e+04
119.2,3.551e+04,2.842e+03,1.076e+03,3.943e+04
120.7,3.136e+04,3.002e+03,1.009e+03,3.538e+04
122.3,2.464e+04,2.696e+03,1.079e+03,2.842e+04
123.9,2.428e+04,2.645e+03,1.167e+03,2.809e+04
125.5,2.611e+04,2.430e+03,1.275e+03,2.981e+04
127.0,2.513e+04,1.969e+03,1.436e+03,2.853e+04
128.6,2.278e+04,2.299e+03,1.495e+03,2.657e+04
130.2,2.118e+04,3.088e+03,1.461e+03,2.573e+04
131.7,1.905e+04,3.122e+03,1.143e+03,2.331e+04
133.3,9.436e+03,1.892e+03,6.793e+02,1.201e+04
134.9,4.010e+03,5.973e+02,3.859e+02,4.994e+03
136.4,4.035e+03,3.900e+02,2.835e+02,4.708e+03
138.0,4.278e+03,4.368e+02,2.555e+02,4.971e+03
139.6,4.328e+03,5.233e+02,2.198e+02,5.071e+03
141.1,4.175e+03,5.563e+02,1.844e+02,4.915e+03
142.7,4.225e+03,5.826e+02,1.872e+02,4.995e+03
144.3,4.309e+03,5.059e+02,1.529e+02,4.968e+03
145.8,4.293e+03,5.217e+02,1.371e+02,4.951e+03
147.4,4.013e+03,5.816e+02,1.712e+02,4.766e+03
149.0,3.420e+03,5.495e+02,1.976e+02,4.167e+03
150.5,3.125e+03,6.298e+02,2.215e+02,3.977e+03
152.1,2.761e+03,5.592e+02,2.203e+02,3.540e+03
153.7,2.455e+03,4.756e+02,2.070e+02,3.138e+03
155.2,2.375e+03,4.158e+02,2.022e+02,2.993e+03
156.8,2.851e+03,3.101e+02,1.940e+02,3.355e+03
158.4,3.897e+03,3.450e+02,1.913e+02,4.433e+03
160.0,4.591e+03,3.444e+02,1.658e+02,5.101e+03
161.5,3.982e+03,2.859e+02,1.390e+02,4.407e+03
163.1,3.055e+03,2.510e+02,1.160e+02,3.422e+03
164.7,2.347e+03,2.158e+02,1.344e+02,2.697e+03
166.2,1.733e+03,2.112e+02,1.486e+02,2.093e+03
167.8,1.405e+03,2.490e+02,1.533e+02,1.808e+03
169.4,1.152e+03,2.741e+02,1.566e+02,1.583e+03
170.9,1.093e+03,2.791e+02,1.437e+02,1.516e+03
172.5,1.364e+03,2.817e+02,1.484e+02,1.794e+03
174.1,1.693e+03,2.959e+02,1.829e+02,2.171e+03
175.6,2.616e+03,3.508e+02,2.019e+02,3.168e+03
177.2,4.904e+03,3.921e+02,1.859e+02,5.482e+03
178.8,7.387e+03,3.072e+02,2.118e+02,7.906e+03
180.3,9.220e+03,2.114e+02,2.071e+02,9.638e+03
181.9,1.096e+04,2.118e+02,1.869e+02,1.135e+04
183.5,1.221e+04,2.092e+02,1.318e+02,1.255e+04
185.0,1.167e+04,1.602e+02,1.213e+02,1.195e+04
186.6,9.328e+03,1.379e+02,1.624e+02,9.628e+03
188.2,6.066e+03,1.443e+02,2.005e+02,6.411e+03
189.7,3.247e+03,1.957e+02,2.108e+02,3.653e+03
191.3,2.405e+03,3.133e+02,2.297e+02,2.948e+03
192.9,3.407e+03,4.155e+02,2.591e+02,4.081e+03
194.5,5.728e+03,5.196e+02,2.874e+02,6.535e+03
196.0,9.385e+03,6.553e+02,2.935e+02,1.033e+04
197.6,1.530e+04,8.224e+02,2.876e+02,1.641e+04
199.2,2.178e+04,8.964e+02,1.983e+02,2.287e+04
